# density, pressure, chemical potential, std. dev. chemical potential, volume
5.000000000000000278e-02 9.679394960403442383e-02 -1.310230551808727606e-01 1.646643934796235796e-04 4.096000000000000000e+04
5.517459271115483094e-02 1.065651774406433105e-01 -1.430502231605925156e-01 1.815574951674555379e-04 3.711853408182837302e+04
6.034918542230965910e-02 1.162919402122497559e-01 -1.558172130889279305e-01 1.942425288992910505e-04 3.393583501862650155e+04
6.552377813346449420e-02 1.259656548500061035e-01 -1.667037448228128049e-01 1.925886738888800214e-04 3.125582892714850095e+04
7.069837084461931542e-02 1.354106217622756958e-01 -1.778293557808683922e-01 2.100749952685696616e-04 2.896813569440077845e+04
7.587296355577413665e-02 1.450065225362777710e-01 -1.889665619173973576e-01 2.420651352843172170e-04 2.699248723156196866e+04
8.104755626692897175e-02 1.545227319002151489e-01 -1.995963995344401387e-01 2.413312545136485029e-04 2.526911475597044773e+04
8.622214897808380685e-02 1.636451780796051025e-01 -2.097726180518474370e-01 2.121513558934108471e-04 2.375259749696758809e+04
9.139674168923862807e-02 1.737174987792968750e-01 -2.198193777074534117e-01 2.416763044439099368e-04 2.240780100195999330e+04
9.657133440039344929e-02 1.832320690155029297e-01 -2.291591464764237696e-01 2.787752067155218564e-04 2.120712127170996246e+04
1.017459271115482844e-01 1.921567916870117188e-01 -2.389260162029255286e-01 2.928757928641776906e-04 2.012856984196224948e+04
1.069205198227031195e-01 2.011833786964416504e-01 -2.478960460919155673e-01 2.827070463148444721e-04 1.915441491863318515e+04
1.120951125338579407e-01 2.110958546400070190e-01 -2.565248120597963810e-01 2.896269894565667779e-04 1.827019888473200626e+04
1.172697052450127758e-01 2.204474657773971558e-01 -2.645203730438125400e-01 3.751474759133095662e-04 1.746401592569106288e+04
1.224442979561675970e-01 2.300131320953369141e-01 -2.729033663491668982e-01 3.901931636102588547e-04 1.672597282343959887e+04
1.276188906673224044e-01 2.394901514053344727e-01 -2.795765398348573627e-01 4.435696683828631022e-04 1.604778093032274592e+04
1.327934833784772395e-01 2.484214752912521362e-01 -2.888277161053464659e-01 4.348835689229396326e-04 1.542244354086981912e+04
1.379680760896320746e-01 2.578494548797607422e-01 -2.949787561504315647e-01 4.036974708824521787e-04 1.484401361565337902e+04
1.431426688007869097e-01 2.677216827869415283e-01 -3.018588342515092782e-01 4.612470622882159504e-04 1.430740405469330835e+04
1.483172615119417448e-01 2.770408391952514648e-01 -3.075374541049061827e-01 4.791579073422942551e-04 1.380823768671797916e+04
1.534918542230965799e-01 2.866277694702148438e-01 -3.136390330098612345e-01 5.070855698812916802e-04 1.334272760183926766e+04
1.586664469342514150e-01 2.957419157028198242e-01 -3.198471394014680280e-01 5.989264800748985134e-04 1.290758090050793908e+04
1.638410396454062223e-01 3.055295050144195557e-01 -3.260871081417991424e-01 5.930128963875112760e-04 1.249992068185354583e+04
1.690156323565610297e-01 3.149796426296234131e-01 -3.277142112443661714e-01 5.698055766636921093e-04 1.211722236248225090e+04
1.741902250677158648e-01 3.242706060409545898e-01 -3.353253934048238127e-01 5.831041024180836502e-04 1.175726134577211087e+04
1.793648177788706999e-01 3.336617648601531982e-01 -3.397157275879300053e-01 5.513225054213476009e-04 1.141806974946931768e+04
1.845394104900255350e-01 3.447262048721313477e-01 -3.433664507609448524e-01 6.160344910112736366e-04 1.109790041358507369e+04
1.897140032011803701e-01 3.534359931945800781e-01 -3.463691205423223285e-01 6.262824969646120727e-04 1.079519679856324728e+04
1.948885959123352052e-01 3.625662028789520264e-01 -3.484158537725171034e-01 7.057205467703969292e-04 1.050856767894839504e+04
2.000631886234900403e-01 3.742407858371734619e-01 -3.502194384238578317e-01 7.215899852469398251e-04 1.023676576431181638e+04
2.052377813346448199e-01 3.832897245883941650e-01 -3.536936405523699589e-01 7.433989365814740917e-04 9.978669554318996234e+03
2.104123740457996550e-01 3.929436206817626953e-01 -3.562296259846780555e-01 8.126048845618199243e-04 9.733267871186224511e+03
2.155869667569544901e-01 4.048659503459930420e-01 -3.572326436614164380e-01 7.826623795544906427e-04 9.499646619681079756e+03
2.207615594681093252e-01 4.126820266246795654e-01 -3.570479971077261117e-01 7.294021923141342156e-04 9.276977409175482535e+03
2.259361521792641603e-01 4.213208258152008057e-01 -3.584605280628944679e-01 1.033416382321892353e-03 9.064507739226517515e+03
2.311107448904189954e-01 4.331053197383880615e-01 -3.582113685562894889e-01 8.138725621587859825e-04 8.861552503632221487e+03
2.362853376015738305e-01 4.439736306667327881e-01 -3.591367947936056626e-01 8.698377976308562616e-04 8.667486610842326627e+03
2.414599303127286656e-01 4.564970731735229492e-01 -3.567435905236783777e-01 9.689561272365156868e-04 8.481738553256091109e+03
2.466345230238834452e-01 4.644806385040283203e-01 -3.567023854533509231e-01 1.026651291982015341e-03 8.303784786048290698e+03
2.518091157350382803e-01 4.770697653293609619e-01 -3.527481437038635925e-01 9.570306332330776175e-04 8.133144799074597358e+03
2.569837084461931154e-01 4.859654903411865234e-01 -3.522664423970174319e-01 1.067002716019722301e-03 7.969376784166095604e+03
2.621583011573479505e-01 4.985475540161132812e-01 -3.507221695745530443e-01 1.066913907189975547e-03 7.812073815548515086e+03
2.673328938685027856e-01 5.095065236091613770e-01 -3.445611180528481143e-01 1.190928972693918635e-03 7.660860473860660932e+03
2.725074865796576207e-01 5.201218724250793457e-01 -3.434229733047950428e-01 9.466993435487182926e-04 7.515389854808050586e+03
2.776820792908124558e-01 5.329194664955139160e-01 -3.399891031375776307e-01 1.247542189520453289e-03 7.375340912278170435e+03
2.828566720019672909e-01 5.419806241989135742e-01 -3.358788233139244905e-01 1.141948195224717737e-03 7.240416093086734691e+03
2.880312647131220705e-01 5.510150790214538574e-01 -3.289723149153380155e-01 1.438834240111434805e-03 7.110339226680129286e+03
2.932058574242769056e-01 5.664525628089904785e-01 -3.240093073300683302e-01 1.174048506307479251e-03 6.984853638297163343e+03
2.983804501354317407e-01 5.803225040435791016e-01 -3.168596348588512690e-01 1.369465058129360532e-03 6.863720458463128125e+03
3.035550428465865758e-01 5.922864079475402832e-01 -3.120718844456934482e-01 1.519973662502622407e-03 6.746717105388484924e+03
3.087296355577414109e-01 6.039520502090454102e-01 -3.011361561282310806e-01 1.636859563775856785e-03 6.633635919985933469e+03
3.139042282688962460e-01 6.164434552192687988e-01 -2.965076109473452348e-01 1.334891918668767085e-03 6.524282935894844741e+03
3.190788209800510811e-01 6.327825784683227539e-01 -2.895004398959333813e-01 1.621618013550390862e-03 6.418476769186889214e+03
3.242534136912058607e-01 6.444186568260192871e-01 -2.787763353220230056e-01 1.445704944787139278e-03 6.316047614383355722e+03
3.294280064023606958e-01 6.576569080352783203e-01 -2.696108186740264201e-01 1.552012515265594047e-03 6.216836335094683818e+03
3.346025991135155309e-01 6.710505485534667969e-01 -2.620777292885863585e-01 1.647431486140432579e-03 6.120693639038967376e+03
3.397771918246703660e-01 6.831862926483154297e-01 -2.495765184029996031e-01 1.762124032496967035e-03 6.027479328444140265e+03
3.449517845358252011e-01 7.004626393318176270e-01 -2.356251500993434278e-01 1.884140643451304902e-03 5.937061617918093361e+03
3.501263772469800362e-01 7.137355804443359375e-01 -2.228684828694145470e-01 1.743933394964805464e-03 5.849316512806847641e+03
3.553009699581348713e-01 7.243726849555969238e-01 -2.114103238880239710e-01 1.983995271831432480e-03 5.764127241874166430e+03
3.604755626692896509e-01 7.447544932365417480e-01 -1.975976028093600068e-01 2.090918225116406622e-03 5.681383738844157051e+03
3.656501553804444860e-01 7.589443325996398926e-01 -1.814957203331105107e-01 2.219637044028560310e-03 5.600982167966364614e+03
3.708247480915993211e-01 7.723209261894226074e-01 -1.672146095711005975e-01 2.054725679330828871e-03 5.522824489303267910e+03
3.759993408027541562e-01 7.902712821960449219e-01 -1.558253438061895091e-01 2.033313324646633061e-03 5.446818059913467550e+03
3.811739335139089913e-01 8.047249913215637207e-01 -1.380483207572945625e-01 2.215892623516054448e-03 5.372875267519490080e+03
3.863485262250638264e-01 8.250577449798583984e-01 -1.212027617644750865e-01 2.410563185707623006e-03 5.300913193614607735e+03
3.915231189362186615e-01 8.426010608673095703e-01 -1.029278758339001593e-01 2.421641556858766548e-03 5.230853303285088259e+03
3.966977116473734966e-01 8.589298725128173828e-01 -8.403074495554710421e-02 2.280750808848739514e-03 5.162621159308519054e+03
4.018723043585283317e-01 8.750334382057189941e-01 -6.526548338857186826e-02 2.698656104136361658e-03 5.096146158340106012e+03
4.070468970696831112e-01 8.939611911773681641e-01 -4.697960726385597835e-02 2.607044635504739746e-03 5.031361287221406201e+03
4.122214897808379463e-01 9.108418822288513184e-01 -2.576805998849600321e-02 2.630287148351066924e-03 4.968202897643307551e+03
4.173960824919927814e-01 9.345852732658386230e-01 -4.768890614419743837e-03 2.832742792585964814e-03 4.906610497570465668e+03
4.225706752031476165e-01 9.529778361320495605e-01 2.036779129347783893e-02 2.634274748098305342e-03 4.846526557990422589e+03
4.277452679143024517e-01 9.724533557891845703e-01 4.252406802146384973e-02 2.929825232333729997e-03 4.787896333689683161e+03
4.329198606254572868e-01 9.922555088996887207e-01 6.299078711999471503e-02 2.805929902529799569e-03 4.730667696883135250e+03
4.380944533366121219e-01 1.013260841369628906e+00 9.023564035194378552e-02 3.183127707164175313e-03 4.674790982634077409e+03
4.432690460477669014e-01 1.038486361503601074e+00 1.151877525722566908e-01 2.846753125866474405e-03 4.620218845101370789e+03
4.484436387589217365e-01 1.059413075447082520e+00 1.431615984331142399e-01 3.191342909300929048e-03 4.566906123739178838e+03
4.536182314700765716e-01 1.085229516029357910e+00 1.739629397858749316e-01 3.320820765742260334e-03 4.514809718654570133e+03
4.587928241812314067e-01 1.105179071426391602e+00 2.020272099463952808e-01 3.171015262748135000e-03 4.463888474399946972e+03
4.639674168923862418e-01 1.132977604866027832e+00 2.348533369118507574e-01 3.360765755989451962e-03 4.414103071541806457e+03
4.691420096035410769e-01 1.157522082328796387e+00 2.668753343377255893e-01 3.247635990822195576e-03 4.365415925405418420e+03
4.743166023146959120e-01 1.184465527534484863e+00 2.967330357992049028e-01 4.093315507534548391e-03 4.317791091447414146e+03
4.794911950258507471e-01 1.208018660545349121e+00 3.326694345741303960e-01 3.988149338853491134e-03 4.271194176755605440e+03
4.846657877370055822e-01 1.234227299690246582e+00 3.616955204414952774e-01 3.918371121993933538e-03 4.225592257218096165e+03
4.898403804481603618e-01 1.267240643501281738e+00 4.069054055585149543e-01 3.805025601175712150e-03 4.180953799942467413e+03
4.950149731593151969e-01 1.288773536682128906e+00 4.401522979787890755e-01 3.491476086598768822e-03 4.137248590540863006e+03
5.001895658704700320e-01 1.319498538970947266e+00 4.721162130839730575e-01 4.640053561497779581e-03 4.094447664928607537e+03
5.053641585816248671e-01 1.351634621620178223e+00 5.155837562983877076e-01 4.250414845655387831e-03 4.052523245312841937e+03
5.105387512927797022e-01 1.385074019432067871e+00 5.684258087438419649e-01 4.239005097545677815e-03 4.011448680073903233e+03
5.157133440039345373e-01 1.417850852012634277e+00 5.945021775075733927e-01 4.761384606466112154e-03 3.971198387266037571e+03
5.208879367150893724e-01 1.444824576377868652e+00 6.449348126781964119e-01 5.155244307050058788e-03 3.931747801485747914e+03
5.260625294262442075e-01 1.482072949409484863e+00 6.900569170531852814e-01 4.836406243965165469e-03 3.893073323875915321e+03
5.312371221373990426e-01 1.519122004508972168e+00 7.379431805014505796e-01 5.546669517150136682e-03 3.855152275051866127e+03
5.364117148485538777e-01 1.556270241737365723e+00 7.899055386154256730e-01 5.896761172213258774e-03 3.817962850752086524e+03
5.415863075597087128e-01 1.587872147560119629e+00 8.306628367850928951e-01 5.735800596138105126e-03 3.781484080031348185e+03
5.467609002708635479e-01 1.626460909843444824e+00 8.802038366943112369e-01 6.013865904056346461e-03 3.745695785827822419e+03
5.519354929820183830e-01 1.664619088172912598e+00 9.382858574685805086e-01 6.249688093871676696e-03 3.710578547748372785e+03
5.571100856931732181e-01 1.709852099418640137e+00 9.982214786576603105e-01 6.123643644542141676e-03 3.676113666927814393e+03
5.622846784043280532e-01 1.749999880790710449e+00 1.063745049438564960e+00 6.740651136412689585e-03 3.642283132828532871e+03
5.674592711154828883e-01 1.793492674827575684e+00 1.100779351231608194e+00 6.226358885833911845e-03 3.609069591856600709e+03
5.726338638266377234e-01 1.836296677589416504e+00 1.168784478447355113e+00 7.222548897999368084e-03 3.576456317679498170e+03
5.778084565377925585e-01 1.886323809623718262e+00 1.226475266316505719e+00 6.357773419789897011e-03 3.544427183138755481e+03
5.829830492489473937e-01 1.926128268241882324e+00 1.278925171950213269e+00 7.301741261426903176e-03 3.512966633658427327e+03
5.881576419601022288e-01 1.978172302246093750e+00 1.352649336385095546e+00 8.515296483475869038e-03 3.482059662057279638e+03
5.933322346712569528e-01 2.021391391754150391e+00 1.419858269792606764e+00 8.325318283045106404e-03 3.451691784678982913e+03
5.985068273824117879e-01 2.074373006820678711e+00 1.497837482823474398e+00 9.114456188275029194e-03 3.421849018760557101e+03
6.036814200935666230e-01 2.130873680114746094e+00 1.576671549220058033e+00 9.188573722879001676e-03 3.392517860964767806e+03
6.088560128047214581e-01 2.187311172485351562e+00 1.626898523669313867e+00 8.577762575237219897e-03 3.363685267007218499e+03
6.140306055158762932e-01 2.239879608154296875e+00 1.705352030346364067e+00 1.009246703299822127e-02 3.335338632313576454e+03
6.192051982270311283e-01 2.291646718978881836e+00 1.769438448429692334e+00 8.873481050996943550e-03 3.307465773646658363e+03
6.243797909381859634e-01 2.352885007858276367e+00 1.857903414888905758e+00 9.736405391237934470e-03 3.280054911647122026e+03
6.295543836493407985e-01 2.418260812759399414e+00 1.941786584944331207e+00 1.008301755883355202e-02 3.253094654235189410e+03
6.347289763604956336e-01 2.474306106567382812e+00 2.025915870928089113e+00 9.763475179204816543e-03 3.226573980824272439e+03
6.399035690716504687e-01 2.541890382766723633e+00 2.103319288184655633e+00 1.100813109261795930e-02 3.200482227300538852e+03
6.450781617828053038e-01 2.607583761215209961e+00 2.163300498694260110e+00 1.204479769279232122e-02 3.174809071725406739e+03
6.502527544939601389e-01 2.677095413208007812e+00 2.272174845179478098e+00 1.124800935136181790e-02 3.149544520720708078e+03
6.554273472051149740e-01 2.742479085922241211e+00 2.404382998788893389e+00 1.365876488485816276e-02 3.124678896498777704e+03
6.606019399162698091e-01 2.817255020141601562e+00 2.483332895297022613e+00 1.176045550852323346e-02 3.100202824502121075e+03
6.657765326274246442e-01 2.893147230148315430e+00 2.576932977005648162e+00 1.338301148650616369e-02 3.076107221619482516e+03
6.709511253385793683e-01 2.978591203689575195e+00 2.651912962806949992e+00 1.496260428001254528e-02 3.052383284947209631e+03
6.761257180497342034e-01 3.049524307250976562e+00 2.788014954143450463e+00 1.491008596645264882e-02 3.029022481066685486e+03
6.813003107608890385e-01 3.133509397506713867e+00 2.890589984090710551e+00 1.442230993480189682e-02 3.006016535810405003e+03
6.864749034720438736e-01 3.210792303085327148e+00 2.978491096585758058e+00 1.625821172212628049e-02 2.983357424490905942e+03
6.916494961831987087e-01 3.300732851028442383e+00 3.101430575914755128e+00 1.629001714557579833e-02 2.961037362568311437e+03
6.968240888943535438e-01 3.382152557373046875e+00 3.201950323693311340e+00 1.844295047359520781e-02 2.939048796733690324e+03
7.019986816055083789e-01 3.475956678390502930e+00 3.300010861913441396e+00 1.879149146189951561e-02 2.917384396386778008e+03
7.071732743166632140e-01 3.563472032546997070e+00 3.448017859763720327e+00 1.810950163244948175e-02 2.896037045487852538e+03
7.123478670278180491e-01 3.662142515182495117e+00 3.529145735536316497e+00 1.942909027516316958e-02 2.874999834764751540e+03
7.175224597389728842e-01 3.767053604125976562e+00 3.683797372528957670e+00 2.054818217816984510e-02 2.854266054257090218e+03
7.226970524501277193e-01 3.866730451583862305e+00 3.787426792410890197e+00 2.212502832721056564e-02 2.833829186180788383e+03
7.278716451612825544e-01 3.974180936813354492e+00 3.904357693728230494e+00 2.438610881020104870e-02 2.813682898096960344e+03
7.330462378724373895e-01 4.083293437957763672e+00 4.044116335704487142e+00 1.926087366074136220e-02 2.793821036370132788e+03
7.382208305835922246e-01 4.176176071166992188e+00 4.138842387853022053e+00 2.383155458281004113e-02 2.774237619901590278e+03
7.433954232947470597e-01 4.300627708435058594e+00 4.326409998697434922e+00 2.498982387214243595e-02 2.754926834124446032e+03
7.485700160059018948e-01 4.412109851837158203e+00 4.470773346026490458e+00 2.351886761121807501e-02 2.735883025247771911e+03
7.537446087170567299e-01 4.534137248992919922e+00 4.664870502672220809e+00 2.991884401615674607e-02 2.717100694737818685e+03
7.589192014282114540e-01 4.661578178405761719e+00 4.775160139452887087e+00 2.949122320573865225e-02 2.698574494025009699e+03
7.640937941393662891e-01 4.781597137451171875e+00 4.872063352944882020e+00 3.030513889812326556e-02 2.680299219426007767e+03
7.692683868505211242e-01 4.901471614837646484e+00 5.043946253544051572e+00 3.196040901218501207e-02 2.662269807270727142e+03
7.744429795616759593e-01 5.044745922088623047e+00 5.181729102322386815e+00 3.636900488570980750e-02 2.644481329224702677e+03
7.796175722728307944e-01 5.181616783142089844e+00 5.390218720431509958e+00 3.835634363433840233e-02 2.626928987797741684e+03
7.847921649839856295e-01 5.318715572357177734e+00 5.642837873744383614e+00 3.696041215554893983e-02 2.609608112030261054e+03
7.899667576951404646e-01 5.470861911773681641e+00 5.760900522807732571e+00 3.627428277093252412e-02 2.592514153349162370e+03
7.951413504062952997e-01 5.606383800506591797e+00 5.900835269140537243e+00 4.301785830226869528e-02 2.575642681585517494e+03
8.003159431174501348e-01 5.768159866333007812e+00 6.042221740618136216e+00 4.185742829689897970e-02 2.558989381146748201e+03
8.054905358286049699e-01 5.927993774414062500e+00 6.325739146691904402e+00 4.331452508861183964e-02 2.542550047336348143e+03
8.106651285397598050e-01 6.086613178253173828e+00 6.441058748566375947e+00 4.612101955611307841e-02 2.526320582814552381e+03
8.158397212509146401e-01 6.242198467254638672e+00 6.617563199199282487e+00 5.090360584545089440e-02 2.510296994193703540e+03
8.210143139620694752e-01 6.420799732208251953e+00 6.847651489488905341e+00 5.044060953926493562e-02 2.494475388762365583e+03
8.261889066732243103e-01 6.587921142578125000e+00 7.021388668551741041e+00 5.183044012302024522e-02 2.478851971332542234e+03
8.313634993843791454e-01 6.760827541351318359e+00 7.213777856784749254e+00 6.565256642213448957e-02 2.463423041204640867e+03
8.365380920955338695e-01 6.942648410797119141e+00 7.340999727194634339e+00 6.015025612947834388e-02 2.448184989245075030e+03
8.417126848066887046e-01 7.127850055694580078e+00 7.760041939347229523e+00 6.527477624722867466e-02 2.433134295071663928e+03
8.468872775178435397e-01 7.313332080841064453e+00 7.871802705679722401e+00 6.707046250687133393e-02 2.418267524342222259e+03
8.520618702289983748e-01 7.520823001861572266e+00 8.022426132493556850e+00 8.300855989791267042e-02 2.403581326141943009e+03
8.572364629401532099e-01 7.707561492919921875e+00 8.326714423400643383e+00 8.525814327700034778e-02 2.389072430465406342e+03
8.624110556513080450e-01 7.924824237823486328e+00 8.617467637219165866e+00 7.531640347168727656e-02 2.374737645789239195e+03
